

########################################################################
Electrons and Phonons 
author: Tyler C. Sterling
email: ty.sterling@colorado.edu
affil: Physics Dept., University of Colorado Boulder
  Neurtron Scattering and Raman Spectroscopy Lab
########################################################################


*** input-args ***
reading input from:
  'specfun_template.py'

*** common variables ***

debug: True
task: phonon_self_energy
temperature:   0.001
lattice_vectors:
  1.414214   0.000000   0.000000 
  0.000000   1.414214   0.000000 
  0.000000   0.000000  10.000000 
atom_types:
  Cu Cu O O O O 
atom_files:
  Cu.py
  O.py
atom_positions: (reduced coords)
  0.000000   0.000000   0.000000 
  0.500000   0.500000   0.000000 
  0.250000   0.250000   0.000000 
  0.750000   0.250000   0.000000 
  0.250000   0.750000   0.000000 
  0.750000   0.750000   0.000000 

*** electron variables ***

orbital_type: tight_binding
num_electrons:   2.00000
use_spin: True
use_hubbard_U: True
hopping_file:
  hopping.py
num_kpts_procs: 8
kpts_option: mesh
use_kpts_symmetry: False
kpts_mesh: 50 50 1
do_electron_scf: False
electron_fixed_fermi_energy: True
electron_output_file: electrons_out.hdf5
write_electron_eigenvectors: True
write_site_density: True
site_density_input_file:
  nscf.hdf5

*** phonon variables ***

num_qpts_procs: 1
qpts_option: path
use_qpts_symmetry: False
qpts_path: (rlu)
  0.000  0.000  0.000
  0.500  0.500  0.000
  0.000  1.000  0.000
  0.000  0.000  0.000
qpts_steps: 50
spring_constants_file:
  spring_constants.py
phonon_output_file: phonon_out.hdf5
write_phonon_eigenvectors: True

*** electron phonon variables ***

elph_phonon_frequency_window:  0.150000  0.250000
phonon_self_energy_eps:   0.200
phonon_spectral_function_eps:   0.000
phonon_self_energy_width:   0.010
phonon_self_energy_step:   0.000
phonon_self_energy_real_option: analytical
phonon_self_energy_imaginary_option: analytical
phonon_self_energy_adiabatic_option: analytical
phonon_self_energy_do_adiabatic: True
phonon_self_energy_do_non_adiabatic: True
elph_output_file: fold.hdf5

########################################################################
####################### setting up common stuff ########################
########################################################################

*** lattice (row vectors!) ***
direct_lattice
    1.41421   0.00000   0.00000 
    0.00000   1.41421   0.00000 
    0.00000   0.00000  10.00000 
reciprocal_lattice
    4.44288   0.00000   0.00000 
    0.00000   4.44288   0.00000 
    0.00000   0.00000   0.62832 

*** atoms ***
unique_atom_types:
  0  Cu
  1  O
num_atoms: 6
 (ind) (type) ---- (crystal coords) -----   ---- (cartesian coords) ----
    0    0    0.00000   0.00000   0.00000    0.00000   0.00000   0.00000
    1    0    0.50000   0.50000   0.00000    0.70711   0.70711   0.00000
    2    1    0.25000   0.25000   0.00000    0.35355   0.35355   0.00000
    3    1    0.75000   0.25000   0.00000    1.06066   0.35355   0.00000
    4    1    0.25000   0.75000   0.00000    0.35355   1.06066   0.00000
    5    1    0.75000   0.75000   0.00000    1.06066   1.06066   0.00000

########################################################################
################### setting up electron phonon stuff ###################
########################################################################

*** orbitals ***
orbital_type: tight_binding
num_orbitals: 2
  (ind) (atom) (type) (n) (l) (m)  ----- reduced position -----
     0      0      0   1   0   0   0.000000  0.000000  0.000000
     1      1      0   1   0   0   0.500000  0.500000  0.000000

*** tight binding orbitals ***
 (ind) (atom) (onsite)   (U)     (g_H)   (g_U)
     0     0    0.000   0.000  -0.025     0.0
     1     1    0.000   0.000  -0.025     0.0

*** spring constants ***
getting spring constants from file:
  'spring_constants.py'

*** spring constants ***
 (t1) (t2)  (id)       (K)   (r-min) (r-max)
   Cu   O   Cu_O      0.015   0.400   0.600
   O    O   O_O       0.002   0.600   0.800

*** hopping ***
getting hopping data from file:
  'hopping.py'

*** supercell ***
supercell multiplicity: 3 3 3
number of supercell images: 27
number of atoms in supercell: 162

*** bonds ***
printing the 1st 10 nearest-neighbor shell distances
 (shell)  (dist)
     0   0.000000
     1   0.500000
     2   0.707107
     3   1.000000
     4   1.118034
     5   1.414214
     6   1.500000
     7   1.581139
     8   1.802776
     9   2.000000

*** electrons ***
total number of electrons in files: 8.00
number of valence electrons in files: 2.00
number of core electrons: 6.00
number of electrons in calculation: 2.00

*** electron io ***
reading site density from file
 'nscf.hdf5'

*** density ***
magnetization:   0.000
 (atom) (type) (density) (mag. density)
     0      0     1.000       0.000
     1      0     1.000       0.000

*** k-points ***
num_kpts_procs: 8
kpts_option: mesh
use_kpts_symmetry: False

generating k-points on full grid spanning brillouin zone
num_kpts on full grid: 2500

max number of k-points over all processes: 313
number of k-points on each process:
 (proc) (num)
   0    313
   1    313
   2    313
   3    313
   4    312
   5    312
   6    312
   7    312

printing the k-points
only printing the first 50 k-points
 (ind)  (wt)   ----------- (rlu) -----------   ----------- (cart) ----------
   0   1.000   -0.48000  -0.48000   0.00000    -2.13258  -2.13258   0.00000
   1   1.000   -0.48000  -0.46000   0.00000    -2.13258  -2.04373   0.00000
   2   1.000   -0.48000  -0.44000   0.00000    -2.13258  -1.95487   0.00000
   3   1.000   -0.48000  -0.42000   0.00000    -2.13258  -1.86601   0.00000
   4   1.000   -0.48000  -0.40000   0.00000    -2.13258  -1.77715   0.00000
   5   1.000   -0.48000  -0.38000   0.00000    -2.13258  -1.68830   0.00000
   6   1.000   -0.48000  -0.36000   0.00000    -2.13258  -1.59944   0.00000
   7   1.000   -0.48000  -0.34000   0.00000    -2.13258  -1.51058   0.00000
   8   1.000   -0.48000  -0.32000   0.00000    -2.13258  -1.42172   0.00000
   9   1.000   -0.48000  -0.30000   0.00000    -2.13258  -1.33286   0.00000
  10   1.000   -0.48000  -0.28000   0.00000    -2.13258  -1.24401   0.00000
  11   1.000   -0.48000  -0.26000   0.00000    -2.13258  -1.15515   0.00000
  12   1.000   -0.48000  -0.24000   0.00000    -2.13258  -1.06629   0.00000
  13   1.000   -0.48000  -0.22000   0.00000    -2.13258  -0.97743   0.00000
  14   1.000   -0.48000  -0.20000   0.00000    -2.13258  -0.88858   0.00000
  15   1.000   -0.48000  -0.18000   0.00000    -2.13258  -0.79972   0.00000
  16   1.000   -0.48000  -0.16000   0.00000    -2.13258  -0.71086   0.00000
  17   1.000   -0.48000  -0.14000   0.00000    -2.13258  -0.62200   0.00000
  18   1.000   -0.48000  -0.12000   0.00000    -2.13258  -0.53315   0.00000
  19   1.000   -0.48000  -0.10000   0.00000    -2.13258  -0.44429   0.00000
  20   1.000   -0.48000  -0.08000   0.00000    -2.13258  -0.35543   0.00000
  21   1.000   -0.48000  -0.06000   0.00000    -2.13258  -0.26657   0.00000
  22   1.000   -0.48000  -0.04000   0.00000    -2.13258  -0.17772   0.00000
  23   1.000   -0.48000  -0.02000   0.00000    -2.13258  -0.08886   0.00000
  24   1.000   -0.48000   0.00000   0.00000    -2.13258   0.00000   0.00000
  25   1.000   -0.48000   0.02000   0.00000    -2.13258   0.08886   0.00000
  26   1.000   -0.48000   0.04000   0.00000    -2.13258   0.17772   0.00000
  27   1.000   -0.48000   0.06000   0.00000    -2.13258   0.26657   0.00000
  28   1.000   -0.48000   0.08000   0.00000    -2.13258   0.35543   0.00000
  29   1.000   -0.48000   0.10000   0.00000    -2.13258   0.44429   0.00000
  30   1.000   -0.48000   0.12000   0.00000    -2.13258   0.53315   0.00000
  31   1.000   -0.48000   0.14000   0.00000    -2.13258   0.62200   0.00000
  32   1.000   -0.48000   0.16000   0.00000    -2.13258   0.71086   0.00000
  33   1.000   -0.48000   0.18000   0.00000    -2.13258   0.79972   0.00000
  34   1.000   -0.48000   0.20000   0.00000    -2.13258   0.88858   0.00000
  35   1.000   -0.48000   0.22000   0.00000    -2.13258   0.97743   0.00000
  36   1.000   -0.48000   0.24000   0.00000    -2.13258   1.06629   0.00000
  37   1.000   -0.48000   0.26000   0.00000    -2.13258   1.15515   0.00000
  38   1.000   -0.48000   0.28000   0.00000    -2.13258   1.24401   0.00000
  39   1.000   -0.48000   0.30000   0.00000    -2.13258   1.33286   0.00000
  40   1.000   -0.48000   0.32000   0.00000    -2.13258   1.42172   0.00000
  41   1.000   -0.48000   0.34000   0.00000    -2.13258   1.51058   0.00000
  42   1.000   -0.48000   0.36000   0.00000    -2.13258   1.59944   0.00000
  43   1.000   -0.48000   0.38000   0.00000    -2.13258   1.68830   0.00000
  44   1.000   -0.48000   0.40000   0.00000    -2.13258   1.77715   0.00000
  45   1.000   -0.48000   0.42000   0.00000    -2.13258   1.86601   0.00000
  46   1.000   -0.48000   0.44000   0.00000    -2.13258   1.95487   0.00000
  47   1.000   -0.48000   0.46000   0.00000    -2.13258   2.04373   0.00000
  48   1.000   -0.48000   0.48000   0.00000    -2.13258   2.13258   0.00000
  49   1.000   -0.48000   0.50000   0.00000    -2.13258   2.22144   0.00000

printing the miller indices
 (ind) ------------------- (rlu) -----------   ----------- (cart) ----------
   0           -0.00000  -0.00000   0.00000     0.00000   0.00000   0.00000
   1           -0.00000  -0.00000   0.00000     0.00000   0.00000   0.00000
   2           -0.00000  -0.00000   0.00000     0.00000   0.00000   0.00000
   3           -0.00000  -0.00000   0.00000     0.00000   0.00000   0.00000
   4           -0.00000  -0.00000   0.00000     0.00000   0.00000   0.00000
   5           -0.00000  -0.00000   0.00000     0.00000   0.00000   0.00000
   6           -0.00000  -0.00000   0.00000     0.00000   0.00000   0.00000
   7           -0.00000  -0.00000   0.00000     0.00000   0.00000   0.00000
   8           -0.00000  -0.00000   0.00000     0.00000   0.00000   0.00000
   9           -0.00000  -0.00000   0.00000     0.00000   0.00000   0.00000
  10           -0.00000  -0.00000   0.00000     0.00000   0.00000   0.00000
  11           -0.00000  -0.00000   0.00000     0.00000   0.00000   0.00000
  12           -0.00000  -0.00000   0.00000     0.00000   0.00000   0.00000
  13           -0.00000  -0.00000   0.00000     0.00000   0.00000   0.00000
  14           -0.00000  -0.00000   0.00000     0.00000   0.00000   0.00000
  15           -0.00000  -0.00000   0.00000     0.00000   0.00000   0.00000
  16           -0.00000  -0.00000   0.00000     0.00000   0.00000   0.00000
  17           -0.00000  -0.00000   0.00000     0.00000   0.00000   0.00000
  18           -0.00000  -0.00000   0.00000     0.00000   0.00000   0.00000
  19           -0.00000  -0.00000   0.00000     0.00000   0.00000   0.00000
  20           -0.00000  -0.00000   0.00000     0.00000   0.00000   0.00000
  21           -0.00000  -0.00000   0.00000     0.00000   0.00000   0.00000
  22           -0.00000  -0.00000   0.00000     0.00000   0.00000   0.00000
  23           -0.00000  -0.00000   0.00000     0.00000   0.00000   0.00000
  24           -0.00000   0.00000   0.00000     0.00000   0.00000   0.00000
  25           -0.00000   0.00000   0.00000     0.00000   0.00000   0.00000
  26           -0.00000   0.00000   0.00000     0.00000   0.00000   0.00000
  27           -0.00000   0.00000   0.00000     0.00000   0.00000   0.00000
  28           -0.00000   0.00000   0.00000     0.00000   0.00000   0.00000
  29           -0.00000   0.00000   0.00000     0.00000   0.00000   0.00000
  30           -0.00000   0.00000   0.00000     0.00000   0.00000   0.00000
  31           -0.00000   0.00000   0.00000     0.00000   0.00000   0.00000
  32           -0.00000   0.00000   0.00000     0.00000   0.00000   0.00000
  33           -0.00000   0.00000   0.00000     0.00000   0.00000   0.00000
  34           -0.00000   0.00000   0.00000     0.00000   0.00000   0.00000
  35           -0.00000   0.00000   0.00000     0.00000   0.00000   0.00000
  36           -0.00000   0.00000   0.00000     0.00000   0.00000   0.00000
  37           -0.00000   0.00000   0.00000     0.00000   0.00000   0.00000
  38           -0.00000   0.00000   0.00000     0.00000   0.00000   0.00000
  39           -0.00000   0.00000   0.00000     0.00000   0.00000   0.00000
  40           -0.00000   0.00000   0.00000     0.00000   0.00000   0.00000
  41           -0.00000   0.00000   0.00000     0.00000   0.00000   0.00000
  42           -0.00000   0.00000   0.00000     0.00000   0.00000   0.00000
  43           -0.00000   0.00000   0.00000     0.00000   0.00000   0.00000
  44           -0.00000   0.00000   0.00000     0.00000   0.00000   0.00000
  45           -0.00000   0.00000   0.00000     0.00000   0.00000   0.00000
  46           -0.00000   0.00000   0.00000     0.00000   0.00000   0.00000
  47           -0.00000   0.00000   0.00000     0.00000   0.00000   0.00000
  48           -0.00000   0.00000   0.00000     0.00000   0.00000   0.00000
  49           -0.00000   0.00000   0.00000     0.00000   0.00000   0.00000

*** q-points ***
num_qpts_procs: 1
qpts_option: path
use_qpts_symmetry: False

generating q-points on path thru reciprocal space
num_qpts: 171

max number of q-points over all processes: 171
number of q-points on each process:
 (proc) (num)
   0    171

printing the q-points
only printing the first 50 q-points
 (ind)  (wt)   ----------- (rlu) -----------   ----------- (cart) ----------
   0   0.006    0.00000   0.00000   0.00000     0.00000   0.00000   0.00000
   1   0.006    0.01000   0.01000   0.00000     0.04443   0.04443   0.00000
   2   0.006    0.02000   0.02000   0.00000     0.08886   0.08886   0.00000
   3   0.006    0.03000   0.03000   0.00000     0.13329   0.13329   0.00000
   4   0.006    0.04000   0.04000   0.00000     0.17772   0.17772   0.00000
   5   0.006    0.05000   0.05000   0.00000     0.22214   0.22214   0.00000
   6   0.006    0.06000   0.06000   0.00000     0.26657   0.26657   0.00000
   7   0.006    0.07000   0.07000   0.00000     0.31100   0.31100   0.00000
   8   0.006    0.08000   0.08000   0.00000     0.35543   0.35543   0.00000
   9   0.006    0.09000   0.09000   0.00000     0.39986   0.39986   0.00000
  10   0.006    0.10000   0.10000   0.00000     0.44429   0.44429   0.00000
  11   0.006    0.11000   0.11000   0.00000     0.48872   0.48872   0.00000
  12   0.006    0.12000   0.12000   0.00000     0.53315   0.53315   0.00000
  13   0.006    0.13000   0.13000   0.00000     0.57757   0.57757   0.00000
  14   0.006    0.14000   0.14000   0.00000     0.62200   0.62200   0.00000
  15   0.006    0.15000   0.15000   0.00000     0.66643   0.66643   0.00000
  16   0.006    0.16000   0.16000   0.00000     0.71086   0.71086   0.00000
  17   0.006    0.17000   0.17000   0.00000     0.75529   0.75529   0.00000
  18   0.006    0.18000   0.18000   0.00000     0.79972   0.79972   0.00000
  19   0.006    0.19000   0.19000   0.00000     0.84415   0.84415   0.00000
  20   0.006    0.20000   0.20000   0.00000     0.88858   0.88858   0.00000
  21   0.006    0.21000   0.21000   0.00000     0.93301   0.93301   0.00000
  22   0.006    0.22000   0.22000   0.00000     0.97743   0.97743   0.00000
  23   0.006    0.23000   0.23000   0.00000     1.02186   1.02186   0.00000
  24   0.006    0.24000   0.24000   0.00000     1.06629   1.06629   0.00000
  25   0.006    0.25000   0.25000   0.00000     1.11072   1.11072   0.00000
  26   0.006    0.26000   0.26000   0.00000     1.15515   1.15515   0.00000
  27   0.006    0.27000   0.27000   0.00000     1.19958   1.19958   0.00000
  28   0.006    0.28000   0.28000   0.00000     1.24401   1.24401   0.00000
  29   0.006    0.29000   0.29000   0.00000     1.28844   1.28844   0.00000
  30   0.006    0.30000   0.30000   0.00000     1.33286   1.33286   0.00000
  31   0.006    0.31000   0.31000   0.00000     1.37729   1.37729   0.00000
  32   0.006    0.32000   0.32000   0.00000     1.42172   1.42172   0.00000
  33   0.006    0.33000   0.33000   0.00000     1.46615   1.46615   0.00000
  34   0.006    0.34000   0.34000   0.00000     1.51058   1.51058   0.00000
  35   0.006    0.35000   0.35000   0.00000     1.55501   1.55501   0.00000
  36   0.006    0.36000   0.36000   0.00000     1.59944   1.59944   0.00000
  37   0.006    0.37000   0.37000   0.00000     1.64387   1.64387   0.00000
  38   0.006    0.38000   0.38000   0.00000     1.68830   1.68830   0.00000
  39   0.006    0.39000   0.39000   0.00000     1.73272   1.73272   0.00000
  40   0.006    0.40000   0.40000   0.00000     1.77715   1.77715   0.00000
  41   0.006    0.41000   0.41000   0.00000     1.82158   1.82158   0.00000
  42   0.006    0.42000   0.42000   0.00000     1.86601   1.86601   0.00000
  43   0.006    0.43000   0.43000   0.00000     1.91044   1.91044   0.00000
  44   0.006    0.44000   0.44000   0.00000     1.95487   1.95487   0.00000
  45   0.006    0.45000   0.45000   0.00000     1.99930   1.99930   0.00000
  46   0.006    0.46000   0.46000   0.00000     2.04373   2.04373   0.00000
  47   0.006    0.47000   0.47000   0.00000     2.08815   2.08815   0.00000
  48   0.006    0.48000   0.48000   0.00000     2.13258   2.13258   0.00000
  49   0.006    0.49000   0.49000   0.00000     2.17701   2.17701   0.00000

printing the miller indices
 (ind) ------------------- (rlu) -----------   ----------- (cart) ----------
   0            0.00000   0.00000   0.00000     0.00000   0.00000   0.00000
   1            0.00000   0.00000   0.00000     0.00000   0.00000   0.00000
   2            0.00000   0.00000   0.00000     0.00000   0.00000   0.00000
   3            0.00000   0.00000   0.00000     0.00000   0.00000   0.00000
   4            0.00000   0.00000   0.00000     0.00000   0.00000   0.00000
   5            0.00000   0.00000   0.00000     0.00000   0.00000   0.00000
   6            0.00000   0.00000   0.00000     0.00000   0.00000   0.00000
   7            0.00000   0.00000   0.00000     0.00000   0.00000   0.00000
   8            0.00000   0.00000   0.00000     0.00000   0.00000   0.00000
   9            0.00000   0.00000   0.00000     0.00000   0.00000   0.00000
  10            0.00000   0.00000   0.00000     0.00000   0.00000   0.00000
  11            0.00000   0.00000   0.00000     0.00000   0.00000   0.00000
  12            0.00000   0.00000   0.00000     0.00000   0.00000   0.00000
  13            0.00000   0.00000   0.00000     0.00000   0.00000   0.00000
  14            0.00000   0.00000   0.00000     0.00000   0.00000   0.00000
  15            0.00000   0.00000   0.00000     0.00000   0.00000   0.00000
  16            0.00000   0.00000   0.00000     0.00000   0.00000   0.00000
  17            0.00000   0.00000   0.00000     0.00000   0.00000   0.00000
  18            0.00000   0.00000   0.00000     0.00000   0.00000   0.00000
  19            0.00000   0.00000   0.00000     0.00000   0.00000   0.00000
  20            0.00000   0.00000   0.00000     0.00000   0.00000   0.00000
  21            0.00000   0.00000   0.00000     0.00000   0.00000   0.00000
  22            0.00000   0.00000   0.00000     0.00000   0.00000   0.00000
  23            0.00000   0.00000   0.00000     0.00000   0.00000   0.00000
  24            0.00000   0.00000   0.00000     0.00000   0.00000   0.00000
  25            0.00000   0.00000   0.00000     0.00000   0.00000   0.00000
  26            0.00000   0.00000   0.00000     0.00000   0.00000   0.00000
  27            0.00000   0.00000   0.00000     0.00000   0.00000   0.00000
  28            0.00000   0.00000   0.00000     0.00000   0.00000   0.00000
  29            0.00000   0.00000   0.00000     0.00000   0.00000   0.00000
  30            0.00000   0.00000   0.00000     0.00000   0.00000   0.00000
  31            0.00000   0.00000   0.00000     0.00000   0.00000   0.00000
  32            0.00000   0.00000   0.00000     0.00000   0.00000   0.00000
  33            0.00000   0.00000   0.00000     0.00000   0.00000   0.00000
  34            0.00000   0.00000   0.00000     0.00000   0.00000   0.00000
  35            0.00000   0.00000   0.00000     0.00000   0.00000   0.00000
  36            0.00000   0.00000   0.00000     0.00000   0.00000   0.00000
  37            0.00000   0.00000   0.00000     0.00000   0.00000   0.00000
  38            0.00000   0.00000   0.00000     0.00000   0.00000   0.00000
  39            0.00000   0.00000   0.00000     0.00000   0.00000   0.00000
  40            0.00000   0.00000   0.00000     0.00000   0.00000   0.00000
  41            0.00000   0.00000   0.00000     0.00000   0.00000   0.00000
  42            0.00000   0.00000   0.00000     0.00000   0.00000   0.00000
  43            0.00000   0.00000   0.00000     0.00000   0.00000   0.00000
  44            0.00000   0.00000   0.00000     0.00000   0.00000   0.00000
  45            0.00000   0.00000   0.00000     0.00000   0.00000   0.00000
  46            0.00000   0.00000   0.00000     0.00000   0.00000   0.00000
  47            0.00000   0.00000   0.00000     0.00000   0.00000   0.00000
  48            0.00000   0.00000   0.00000     0.00000   0.00000   0.00000
  49            0.00000   0.00000   0.00000     0.00000   0.00000   0.00000

*** WARNING ***
found more than one wavevector with coordinate:
   0.000  0.000  0.000
returning only the first index!

*** electron phonon ***
number of coupled orbitals: 2
  (atom) (orb)  (g_H)   (g_UX)
     0      0  -0.025   0.000
     1      1  -0.025   0.000

########################################################################
##################### running 'phonon_self_energy' #####################
########################################################################

*** solving phonons ***
entering phonon calculation

*** dynamical matrix ***
there are 171 qpts to do ...
  now on qpt 0 out of 171
  now on qpt 100 out of 171

*** NOTE ***
pristine crystal energy enforced to be 0.0

*** electron nscf ***
entering electron nscf calculation

*** hamiltonian ***
there are 2500 kpts to do
proc[0] will do 313 kpts
only printing for proc[0] ...
  now on kpt 0 out of 313

 density rms: 4.44089e-16
 spin up rms: 1.57009e-16
 spin down rms: 1.57009e-16
 magnetization:   0.00000

*** final density ***
magnetization:   0.000
 (atom) (type) (density) (mag. density)
     0      0     1.000       0.000
     1      0     1.000       0.000
     2      1     0.000       0.000
     3      1     0.000       0.000
     4      1     0.000       0.000
     5      1     0.000       0.000

*** converged electron thermo. ***
- normalized to the unitcell!
hubbard_energy: -0.000000e+00
free_energy: -3.240255e+00
band_energy: -3.240145e+00
ground_state_energy: -3.240145e+00
entropy: 1.097945e-01
fermi_energy: 0.000000e+00

*** gap ***
lumo_energy:   0.000
homo_energy:   0.000
estimated gap:   0.000
metallic: True

 now on qpt[0] out of 171
 now on qpt[10] out of 171
 now on qpt[20] out of 171
 now on qpt[30] out of 171
 now on qpt[40] out of 171
 now on qpt[50] out of 171
 now on qpt[60] out of 171
 now on qpt[70] out of 171
 now on qpt[80] out of 171
 now on qpt[90] out of 171
 now on qpt[100] out of 171
 now on qpt[110] out of 171
 now on qpt[120] out of 171
 now on qpt[130] out of 171
 now on qpt[140] out of 171
 now on qpt[150] out of 171
 now on qpt[160] out of 171
 now on qpt[170] out of 171

*** coupling ***
mode resolved mft coupling constant
 (mode) (Gamma)
    0      0.000000
    1      0.000000
    2      0.000000
    3      0.000000
    4      0.000000
    5      0.000000
    6      0.000000
    7      0.000000
    8      0.000000
    9     -0.000000
   10     -0.000000
   11     -0.000000
   12      0.000000
   13      0.000000
   14      0.000000
   15      0.000000
   16      0.000000
   17     -0.000000

*** self energy energy ***
there are 1218 points between  0.000 and  0.304

*** phonon spectral function ***
there are 171 qpts to do
entering loop over qpts ...

--------------------------- qpt 0 out of 171 ---------------------------

qpt[1]=(0.000,0.000,0.000)

calculating electron-phonon matrix elements ...

resetting k-points!

max number of k-points over all processes: 313
number of k-points on each process:
 (proc) (num)
   0    313
   1    313
   2    313
   3    313
   4    312
   5    312
   6    312
   7    312

printing the k-points
only printing the first 50 k-points
 (ind)  (wt)   ----------- (rlu) -----------   ----------- (cart) ----------
   0   1.000   -0.48000  -0.48000   0.00000    -2.13258  -2.13258   0.00000
   1   1.000   -0.48000  -0.46000   0.00000    -2.13258  -2.04373   0.00000
   2   1.000   -0.48000  -0.44000   0.00000    -2.13258  -1.95487   0.00000
   3   1.000   -0.48000  -0.42000   0.00000    -2.13258  -1.86601   0.00000
   4   1.000   -0.48000  -0.40000   0.00000    -2.13258  -1.77715   0.00000
   5   1.000   -0.48000  -0.38000   0.00000    -2.13258  -1.68830   0.00000
   6   1.000   -0.48000  -0.36000   0.00000    -2.13258  -1.59944   0.00000
   7   1.000   -0.48000  -0.34000   0.00000    -2.13258  -1.51058   0.00000
   8   1.000   -0.48000  -0.32000   0.00000    -2.13258  -1.42172   0.00000
   9   1.000   -0.48000  -0.30000   0.00000    -2.13258  -1.33286   0.00000
  10   1.000   -0.48000  -0.28000   0.00000    -2.13258  -1.24401   0.00000
  11   1.000   -0.48000  -0.26000   0.00000    -2.13258  -1.15515   0.00000
  12   1.000   -0.48000  -0.24000   0.00000    -2.13258  -1.06629   0.00000
  13   1.000   -0.48000  -0.22000   0.00000    -2.13258  -0.97743   0.00000
  14   1.000   -0.48000  -0.20000   0.00000    -2.13258  -0.88858   0.00000
  15   1.000   -0.48000  -0.18000   0.00000    -2.13258  -0.79972   0.00000
  16   1.000   -0.48000  -0.16000   0.00000    -2.13258  -0.71086   0.00000
  17   1.000   -0.48000  -0.14000   0.00000    -2.13258  -0.62200   0.00000
  18   1.000   -0.48000  -0.12000   0.00000    -2.13258  -0.53315   0.00000
  19   1.000   -0.48000  -0.10000   0.00000    -2.13258  -0.44429   0.00000
  20   1.000   -0.48000  -0.08000   0.00000    -2.13258  -0.35543   0.00000
  21   1.000   -0.48000  -0.06000   0.00000    -2.13258  -0.26657   0.00000
  22   1.000   -0.48000  -0.04000   0.00000    -2.13258  -0.17772   0.00000
  23   1.000   -0.48000  -0.02000   0.00000    -2.13258  -0.08886   0.00000
  24   1.000   -0.48000   0.00000   0.00000    -2.13258   0.00000   0.00000
  25   1.000   -0.48000   0.02000   0.00000    -2.13258   0.08886   0.00000
  26   1.000   -0.48000   0.04000   0.00000    -2.13258   0.17772   0.00000
  27   1.000   -0.48000   0.06000   0.00000    -2.13258   0.26657   0.00000
  28   1.000   -0.48000   0.08000   0.00000    -2.13258   0.35543   0.00000
  29   1.000   -0.48000   0.10000   0.00000    -2.13258   0.44429   0.00000
  30   1.000   -0.48000   0.12000   0.00000    -2.13258   0.53315   0.00000
  31   1.000   -0.48000   0.14000   0.00000    -2.13258   0.62200   0.00000
  32   1.000   -0.48000   0.16000   0.00000    -2.13258   0.71086   0.00000
  33   1.000   -0.48000   0.18000   0.00000    -2.13258   0.79972   0.00000
  34   1.000   -0.48000   0.20000   0.00000    -2.13258   0.88858   0.00000
  35   1.000   -0.48000   0.22000   0.00000    -2.13258   0.97743   0.00000
  36   1.000   -0.48000   0.24000   0.00000    -2.13258   1.06629   0.00000
  37   1.000   -0.48000   0.26000   0.00000    -2.13258   1.15515   0.00000
  38   1.000   -0.48000   0.28000   0.00000    -2.13258   1.24401   0.00000
  39   1.000   -0.48000   0.30000   0.00000    -2.13258   1.33286   0.00000
  40   1.000   -0.48000   0.32000   0.00000    -2.13258   1.42172   0.00000
  41   1.000   -0.48000   0.34000   0.00000    -2.13258   1.51058   0.00000
  42   1.000   -0.48000   0.36000   0.00000    -2.13258   1.59944   0.00000
  43   1.000   -0.48000   0.38000   0.00000    -2.13258   1.68830   0.00000
  44   1.000   -0.48000   0.40000   0.00000    -2.13258   1.77715   0.00000
  45   1.000   -0.48000   0.42000   0.00000    -2.13258   1.86601   0.00000
  46   1.000   -0.48000   0.44000   0.00000    -2.13258   1.95487   0.00000
  47   1.000   -0.48000   0.46000   0.00000    -2.13258   2.04373   0.00000
  48   1.000   -0.48000   0.48000   0.00000    -2.13258   2.13258   0.00000
  49   1.000   -0.48000   0.50000   0.00000    -2.13258   2.22144   0.00000

printing the miller indices
 (ind) ------------------- (rlu) -----------   ----------- (cart) ----------
   0           -0.00000  -0.00000   0.00000     0.00000   0.00000   0.00000
   1           -0.00000  -0.00000   0.00000     0.00000   0.00000   0.00000
   2           -0.00000  -0.00000   0.00000     0.00000   0.00000   0.00000
   3           -0.00000  -0.00000   0.00000     0.00000   0.00000   0.00000
   4           -0.00000  -0.00000   0.00000     0.00000   0.00000   0.00000
   5           -0.00000  -0.00000   0.00000     0.00000   0.00000   0.00000
   6           -0.00000  -0.00000   0.00000     0.00000   0.00000   0.00000
   7           -0.00000  -0.00000   0.00000     0.00000   0.00000   0.00000
   8           -0.00000  -0.00000   0.00000     0.00000   0.00000   0.00000
   9           -0.00000  -0.00000   0.00000     0.00000   0.00000   0.00000
  10           -0.00000  -0.00000   0.00000     0.00000   0.00000   0.00000
  11           -0.00000  -0.00000   0.00000     0.00000   0.00000   0.00000
  12           -0.00000  -0.00000   0.00000     0.00000   0.00000   0.00000
  13           -0.00000  -0.00000   0.00000     0.00000   0.00000   0.00000
  14           -0.00000  -0.00000   0.00000     0.00000   0.00000   0.00000
  15           -0.00000  -0.00000   0.00000     0.00000   0.00000   0.00000
  16           -0.00000  -0.00000   0.00000     0.00000   0.00000   0.00000
  17           -0.00000  -0.00000   0.00000     0.00000   0.00000   0.00000
  18           -0.00000  -0.00000   0.00000     0.00000   0.00000   0.00000
  19           -0.00000  -0.00000   0.00000     0.00000   0.00000   0.00000
  20           -0.00000  -0.00000   0.00000     0.00000   0.00000   0.00000
  21           -0.00000  -0.00000   0.00000     0.00000   0.00000   0.00000
  22           -0.00000  -0.00000   0.00000     0.00000   0.00000   0.00000
  23           -0.00000  -0.00000   0.00000     0.00000   0.00000   0.00000
  24           -0.00000   0.00000   0.00000     0.00000   0.00000   0.00000
  25           -0.00000   0.00000   0.00000     0.00000   0.00000   0.00000
  26           -0.00000   0.00000   0.00000     0.00000   0.00000   0.00000
  27           -0.00000   0.00000   0.00000     0.00000   0.00000   0.00000
  28           -0.00000   0.00000   0.00000     0.00000   0.00000   0.00000
  29           -0.00000   0.00000   0.00000     0.00000   0.00000   0.00000
  30           -0.00000   0.00000   0.00000     0.00000   0.00000   0.00000
  31           -0.00000   0.00000   0.00000     0.00000   0.00000   0.00000
  32           -0.00000   0.00000   0.00000     0.00000   0.00000   0.00000
  33           -0.00000   0.00000   0.00000     0.00000   0.00000   0.00000
  34           -0.00000   0.00000   0.00000     0.00000   0.00000   0.00000
  35           -0.00000   0.00000   0.00000     0.00000   0.00000   0.00000
  36           -0.00000   0.00000   0.00000     0.00000   0.00000   0.00000
  37           -0.00000   0.00000   0.00000     0.00000   0.00000   0.00000
  38           -0.00000   0.00000   0.00000     0.00000   0.00000   0.00000
  39           -0.00000   0.00000   0.00000     0.00000   0.00000   0.00000
  40           -0.00000   0.00000   0.00000     0.00000   0.00000   0.00000
  41           -0.00000   0.00000   0.00000     0.00000   0.00000   0.00000
  42           -0.00000   0.00000   0.00000     0.00000   0.00000   0.00000
  43           -0.00000   0.00000   0.00000     0.00000   0.00000   0.00000
  44           -0.00000   0.00000   0.00000     0.00000   0.00000   0.00000
  45           -0.00000   0.00000   0.00000     0.00000   0.00000   0.00000
  46           -0.00000   0.00000   0.00000     0.00000   0.00000   0.00000
  47           -0.00000   0.00000   0.00000     0.00000   0.00000   0.00000
  48           -0.00000   0.00000   0.00000     0.00000   0.00000   0.00000
  49           -0.00000   0.00000   0.00000     0.00000   0.00000   0.00000

*** hamiltonian ***
there are 2500 kpts to do
proc[0] will do 313 kpts
only printing for proc[0] ...
  now on kpt 0 out of 313
